# Pulseq sequence file
# Created by PyPulseq

[VERSION]
major 1
minor 2
revision 0

# Format of blocks:
#  #  D RF  GX  GY  GZ ADC
[BLOCKS]
   1  0  1   1   0   0  0
   2  1  0   0   0   0  0
   3  0  0   2   0   0  0
   4  0  2   3   0   0  0
   5  0  0   4   5   0  0
   6  0  1   6   0   0  0
   7  0  0   7   8   9  0
   8  0  0   0  10   0  1
   9  0  0  11  12  13  0
  10  0  0   6   0   0  0
  11  0  0   7   0   0  0
  12  2  0   0   0   0  0
  13  0  1   1   0   0  0
  14  1  0   0   0   0  0
  15  0  0   2   0   0  0
  16  0  2   3   0   0  0
  17  0  0   4   5   0  0
  18  0  1   6   0   0  0
  19  0  0   7   8  14  0
  20  0  0   0  10   0  1
  21  0  0  11  12  15  0
  22  0  0   6   0   0  0
  23  0  0   7   0   0  0
  24  2  0   0   0   0  0
  25  0  1   1   0   0  0
  26  1  0   0   0   0  0
  27  0  0   2   0   0  0
  28  0  2   3   0   0  0
  29  0  0   4   5   0  0
  30  0  1   6   0   0  0
  31  0  0   7   8  16  0
  32  0  0   0  10   0  1
  33  0  0  11  12  17  0
  34  0  0   6   0   0  0
  35  0  0   7   0   0  0
  36  2  0   0   0   0  0
  37  0  1   1   0   0  0
  38  1  0   0   0   0  0
  39  0  0   2   0   0  0
  40  0  2   3   0   0  0
  41  0  0   4   5   0  0
  42  0  1   6   0   0  0
  43  0  0   7   8  18  0
  44  0  0   0  10   0  1
  45  0  0  11  12  19  0
  46  0  0   6   0   0  0
  47  0  0   7   0   0  0
  48  2  0   0   0   0  0
  49  0  1   1   0   0  0
  50  1  0   0   0   0  0
  51  0  0   2   0   0  0
  52  0  2   3   0   0  0
  53  0  0   4   5   0  0
  54  0  1   6   0   0  0
  55  0  0   7   8  20  0
  56  0  0   0  10   0  1
  57  0  0  11  12  21  0
  58  0  0   6   0   0  0
  59  0  0   7   0   0  0
  60  2  0   0   0   0  0
  61  0  1   1   0   0  0
  62  1  0   0   0   0  0
  63  0  0   2   0   0  0
  64  0  2   3   0   0  0
  65  0  0   4   5   0  0
  66  0  1   6   0   0  0
  67  0  0   7   8  22  0
  68  0  0   0  10   0  1
  69  0  0  11  12  23  0
  70  0  0   6   0   0  0
  71  0  0   7   0   0  0
  72  2  0   0   0   0  0
  73  0  1   1   0   0  0
  74  1  0   0   0   0  0
  75  0  0   2   0   0  0
  76  0  2   3   0   0  0
  77  0  0   4   5   0  0
  78  0  1   6   0   0  0
  79  0  0   7   8  24  0
  80  0  0   0  10   0  1
  81  0  0  11  12  25  0
  82  0  0   6   0   0  0
  83  0  0   7   0   0  0
  84  2  0   0   0   0  0
  85  0  1   1   0   0  0
  86  1  0   0   0   0  0
  87  0  0   2   0   0  0
  88  0  2   3   0   0  0
  89  0  0   4   5   0  0
  90  0  1   6   0   0  0
  91  0  0   7   8  26  0
  92  0  0   0  10   0  1
  93  0  0  11  12  27  0
  94  0  0   6   0   0  0
  95  0  0   7   0   0  0
  96  2  0   0   0   0  0
  97  0  1   1   0   0  0
  98  1  0   0   0   0  0
  99  0  0   2   0   0  0
 100  0  2   3   0   0  0
 101  0  0   4   5   0  0
 102  0  1   6   0   0  0
 103  0  0   7   8  28  0
 104  0  0   0  10   0  1
 105  0  0  11  12  29  0
 106  0  0   6   0   0  0
 107  0  0   7   0   0  0
 108  2  0   0   0   0  0
 109  0  1   1   0   0  0
 110  1  0   0   0   0  0
 111  0  0   2   0   0  0
 112  0  2   3   0   0  0
 113  0  0   4   5   0  0
 114  0  1   6   0   0  0
 115  0  0   7   8  30  0
 116  0  0   0  10   0  1
 117  0  0  11  12  31  0
 118  0  0   6   0   0  0
 119  0  0   7   0   0  0
 120  2  0   0   0   0  0
 121  0  1   1   0   0  0
 122  1  0   0   0   0  0
 123  0  0   2   0   0  0
 124  0  2   3   0   0  0
 125  0  0   4   5   0  0
 126  0  1   6   0   0  0
 127  0  0   7   8  32  0
 128  0  0   0  10   0  1
 129  0  0  11  12  33  0
 130  0  0   6   0   0  0
 131  0  0   7   0   0  0
 132  2  0   0   0   0  0
 133  0  1   1   0   0  0
 134  1  0   0   0   0  0
 135  0  0   2   0   0  0
 136  0  2   3   0   0  0
 137  0  0   4   5   0  0
 138  0  1   6   0   0  0
 139  0  0   7   8  34  0
 140  0  0   0  10   0  1
 141  0  0  11  12  35  0
 142  0  0   6   0   0  0
 143  0  0   7   0   0  0
 144  2  0   0   0   0  0
 145  0  1   1   0   0  0
 146  1  0   0   0   0  0
 147  0  0   2   0   0  0
 148  0  2   3   0   0  0
 149  0  0   4   5   0  0
 150  0  1   6   0   0  0
 151  0  0   7   8  36  0
 152  0  0   0  10   0  1
 153  0  0  11  12  37  0
 154  0  0   6   0   0  0
 155  0  0   7   0   0  0
 156  2  0   0   0   0  0
 157  0  1   1   0   0  0
 158  1  0   0   0   0  0
 159  0  0   2   0   0  0
 160  0  2   3   0   0  0
 161  0  0   4   5   0  0
 162  0  1   6   0   0  0
 163  0  0   7   8  38  0
 164  0  0   0  10   0  1
 165  0  0  11  12  39  0
 166  0  0   6   0   0  0
 167  0  0   7   0   0  0
 168  2  0   0   0   0  0
 169  0  1   1   0   0  0
 170  1  0   0   0   0  0
 171  0  0   2   0   0  0
 172  0  2   3   0   0  0
 173  0  0   4   5   0  0
 174  0  1   6   0   0  0
 175  0  0   7   8  40  0
 176  0  0   0  10   0  1
 177  0  0  11  12  41  0
 178  0  0   6   0   0  0
 179  0  0   7   0   0  0
 180  2  0   0   0   0  0
 181  0  1   1   0   0  0
 182  1  0   0   0   0  0
 183  0  0   2   0   0  0
 184  0  2   3   0   0  0
 185  0  0   4   5   0  0
 186  0  1   6   0   0  0
 187  0  0   7   8  42  0
 188  0  0   0  10   0  1
 189  0  0  11  12  43  0
 190  0  0   6   0   0  0
 191  0  0   7   0   0  0
 192  2  0   0   0   0  0
 193  0  1   1   0   0  0
 194  1  0   0   0   0  0
 195  0  0   2   0   0  0
 196  0  2   3   0   0  0
 197  0  0   4   5   0  0
 198  0  1   6   0   0  0
 199  0  0   7   8  44  0
 200  0  0   0  10   0  1
 201  0  0  11  12  45  0
 202  0  0   6   0   0  0
 203  0  0   7   0   0  0
 204  2  0   0   0   0  0
 205  0  1   1   0   0  0
 206  1  0   0   0   0  0
 207  0  0   2   0   0  0
 208  0  2   3   0   0  0
 209  0  0   4   5   0  0
 210  0  1   6   0   0  0
 211  0  0   7   8  46  0
 212  0  0   0  10   0  1
 213  0  0  11  12  47  0
 214  0  0   6   0   0  0
 215  0  0   7   0   0  0
 216  2  0   0   0   0  0
 217  0  1   1   0   0  0
 218  1  0   0   0   0  0
 219  0  0   2   0   0  0
 220  0  2   3   0   0  0
 221  0  0   4   5   0  0
 222  0  1   6   0   0  0
 223  0  0   7   8  48  0
 224  0  0   0  10   0  1
 225  0  0  11  12  49  0
 226  0  0   6   0   0  0
 227  0  0   7   0   0  0
 228  2  0   0   0   0  0
 229  0  1   1   0   0  0
 230  1  0   0   0   0  0
 231  0  0   2   0   0  0
 232  0  2   3   0   0  0
 233  0  0   4   5   0  0
 234  0  1   6   0   0  0
 235  0  0   7   8  50  0
 236  0  0   0  10   0  1
 237  0  0  11  12  51  0
 238  0  0   6   0   0  0
 239  0  0   7   0   0  0
 240  2  0   0   0   0  0
 241  0  1   1   0   0  0
 242  1  0   0   0   0  0
 243  0  0   2   0   0  0
 244  0  2   3   0   0  0
 245  0  0   4   5   0  0
 246  0  1   6   0   0  0
 247  0  0   7   8  52  0
 248  0  0   0  10   0  1
 249  0  0  11  12  53  0
 250  0  0   6   0   0  0
 251  0  0   7   0   0  0
 252  2  0   0   0   0  0
 253  0  1   1   0   0  0
 254  1  0   0   0   0  0
 255  0  0   2   0   0  0
 256  0  2   3   0   0  0
 257  0  0   4   5   0  0
 258  0  1   6   0   0  0
 259  0  0   7   8  54  0
 260  0  0   0  10   0  1
 261  0  0  11  12  55  0
 262  0  0   6   0   0  0
 263  0  0   7   0   0  0
 264  2  0   0   0   0  0
 265  0  1   1   0   0  0
 266  1  0   0   0   0  0
 267  0  0   2   0   0  0
 268  0  2   3   0   0  0
 269  0  0   4   5   0  0
 270  0  1   6   0   0  0
 271  0  0   7   8  56  0
 272  0  0   0  10   0  1
 273  0  0  11  12  57  0
 274  0  0   6   0   0  0
 275  0  0   7   0   0  0
 276  2  0   0   0   0  0
 277  0  1   1   0   0  0
 278  1  0   0   0   0  0
 279  0  0   2   0   0  0
 280  0  2   3   0   0  0
 281  0  0   4   5   0  0
 282  0  1   6   0   0  0
 283  0  0   7   8  58  0
 284  0  0   0  10   0  1
 285  0  0  11  12  59  0
 286  0  0   6   0   0  0
 287  0  0   7   0   0  0
 288  2  0   0   0   0  0
 289  0  1   1   0   0  0
 290  1  0   0   0   0  0
 291  0  0   2   0   0  0
 292  0  2   3   0   0  0
 293  0  0   4   5   0  0
 294  0  1   6   0   0  0
 295  0  0   7   8  60  0
 296  0  0   0  10   0  1
 297  0  0  11  12  61  0
 298  0  0   6   0   0  0
 299  0  0   7   0   0  0
 300  2  0   0   0   0  0
 301  0  1   1   0   0  0
 302  1  0   0   0   0  0
 303  0  0   2   0   0  0
 304  0  2   3   0   0  0
 305  0  0   4   5   0  0
 306  0  1   6   0   0  0
 307  0  0   7   8  62  0
 308  0  0   0  10   0  1
 309  0  0  11  12  63  0
 310  0  0   6   0   0  0
 311  0  0   7   0   0  0
 312  2  0   0   0   0  0
 313  0  1   1   0   0  0
 314  1  0   0   0   0  0
 315  0  0   2   0   0  0
 316  0  2   3   0   0  0
 317  0  0   4   5   0  0
 318  0  1   6   0   0  0
 319  0  0   7   8  64  0
 320  0  0   0  10   0  1
 321  0  0  11  12  65  0
 322  0  0   6   0   0  0
 323  0  0   7   0   0  0
 324  2  0   0   0   0  0
 325  0  1   1   0   0  0
 326  1  0   0   0   0  0
 327  0  0   2   0   0  0
 328  0  2   3   0   0  0
 329  0  0   4   5   0  0
 330  0  1   6   0   0  0
 331  0  0   7   8  66  0
 332  0  0   0  10   0  1
 333  0  0  11  12  67  0
 334  0  0   6   0   0  0
 335  0  0   7   0   0  0
 336  2  0   0   0   0  0
 337  0  1   1   0   0  0
 338  1  0   0   0   0  0
 339  0  0   2   0   0  0
 340  0  2   3   0   0  0
 341  0  0   4   5   0  0
 342  0  1   6   0   0  0
 343  0  0   7   8  68  0
 344  0  0   0  10   0  1
 345  0  0  11  12  69  0
 346  0  0   6   0   0  0
 347  0  0   7   0   0  0
 348  2  0   0   0   0  0
 349  0  1   1   0   0  0
 350  1  0   0   0   0  0
 351  0  0   2   0   0  0
 352  0  2   3   0   0  0
 353  0  0   4   5   0  0
 354  0  1   6   0   0  0
 355  0  0   7   8  70  0
 356  0  0   0  10   0  1
 357  0  0  11  12  71  0
 358  0  0   6   0   0  0
 359  0  0   7   0   0  0
 360  2  0   0   0   0  0
 361  0  1   1   0   0  0
 362  1  0   0   0   0  0
 363  0  0   2   0   0  0
 364  0  2   3   0   0  0
 365  0  0   4   5   0  0
 366  0  1   6   0   0  0
 367  0  0   7   8  72  0
 368  0  0   0  10   0  1
 369  0  0  11  12  73  0
 370  0  0   6   0   0  0
 371  0  0   7   0   0  0
 372  2  0   0   0   0  0
 373  0  1   1   0   0  0
 374  1  0   0   0   0  0
 375  0  0   2   0   0  0
 376  0  2   3   0   0  0
 377  0  0   4   5   0  0
 378  0  1   6   0   0  0
 379  0  0   7   8  74  0
[RF]
1      987.456 1 2 100 15200 -95.4089
2      394.982 5 6 100 15200 -117.714

# Format of arbitrary gradients:
# id amplitude shape_id delay
# ..      Hz/m     ....    us
[GRADIENTS]
2       261333 3 0
3       266667 4 0
4       263043 7 0
6       266667 8 0
7  1.34091e+06 9 0
8  1.20895e+06 10 0
10      79750.8 11 0
11  1.34091e+06 12 0
12  1.20895e+06 13 0

# Format of trapezoid gradients:
# id amplitude rise flat fall delay
# ..      Hz/m   us   us   us    us
[TRAP]
 1       266667 250 2200 250   0
 5       346916 250 2050 250   0
 9      -581818 250  190 250   0
13       581818 250  190 250   0
14      -572727 250  190 250   0
15       572727 250  190 250   0
16      -563636 250  190 250   0
17       563636 250  190 250   0
18      -554545 250  190 250   0
19       554545 250  190 250   0
20      -545455 250  190 250   0
21       545455 250  190 250   0
22      -536364 250  190 250   0
23       536364 250  190 250   0
24      -527273 250  190 250   0
25       527273 250  190 250   0
26      -518182 250  190 250   0
27       518182 250  190 250   0
28      -509091 250  190 250   0
29       509091 250  190 250   0
30      -500000 250  190 250   0
31       500000 250  190 250   0
32      -490909 250  190 250   0
33       490909 250  190 250   0
34      -481818 250  190 250   0
35       481818 250  190 250   0
36      -472727 250  190 250   0
37       472727 250  190 250   0
38      -463636 250  190 250   0
39       463636 250  190 250   0
40      -454545 250  190 250   0
41       454545 250  190 250   0
42      -445455 250  190 250   0
43       445455 250  190 250   0
44      -436364 250  190 250   0
45       436364 250  190 250   0
46      -427273 250  190 250   0
47       427273 250  190 250   0
48      -418182 250  190 250   0
49       418182 250  190 250   0
50      -409091 250  190 250   0
51       409091 250  190 250   0
52      -400000 250  190 250   0
53       400000 250  190 250   0
54      -390909 250  190 250   0
55       390909 250  190 250   0
56      -381818 250  190 250   0
57       381818 250  190 250   0
58      -372727 250  190 250   0
59       372727 250  190 250   0
60      -363636 250  190 250   0
61       363636 250  190 250   0
62      -354545 250  190 250   0
63       354545 250  190 250   0
64      -345455 250  190 250   0
65       345455 250  190 250   0
66      -336364 250  190 250   0
67       336364 250  190 250   0
68      -327273 250  190 250   0
69       327273 250  190 250   0
70      -318182 250  190 250   0
71       318182 250  190 250   0
72      -309091 250  190 250   0
73       309091 250  190 250   0
74      -300000 250  190 250   0
75       300000 250  190 250   0
76      -290909 250  190 250   0
77       290909 250  190 250   0
78      -281818 250  190 250   0
79       281818 250  190 250   0
80      -272727 250  190 250   0
81       272727 250  190 250   0
82      -263636 250  190 250   0
83       263636 250  190 250   0
84      -254545 250  190 250   0
85       254545 250  190 250   0
86      -245455 250  190 250   0
87       245455 250  190 250   0
88      -236364 250  190 250   0
89       236364 250  190 250   0
90      -227273 250  190 250   0
91       227273 250  190 250   0
92      -218182 250  190 250   0
93       218182 250  190 250   0
94      -209091 250  190 250   0
95       209091 250  190 250   0
96      -200000 250  190 250   0
97       200000 250  190 250   0
98      -190909 250  190 250   0
99       190909 250  190 250   0
100      -181818 250  190 250   0
101       181818 250  190 250   0
102      -172727 250  190 250   0
103       172727 250  190 250   0
104      -163636 250  190 250   0
105       163636 250  190 250   0
106      -154545 250  190 250   0
107       154545 250  190 250   0
108      -145455 250  190 250   0
109       145455 250  190 250   0
110      -136364 250  190 250   0
111       136364 250  190 250   0
112      -127273 250  190 250   0
113       127273 250  190 250   0
114      -118182 250  190 250   0
115       118182 250  190 250   0
116      -109091 250  190 250   0
117       109091 250  190 250   0
118      -100000 250  190 250   0
119       100000 250  190 250   0
120     -90909.1 250  190 250   0
121      90909.1 250  190 250   0
122     -81818.2 250  190 250   0
123      81818.2 250  190 250   0
124     -72727.3 250  190 250   0
125      72727.3 250  190 250   0
126     -63636.4 250  190 250   0
127      63636.4 250  190 250   0
128     -54545.5 250  190 250   0
129      54545.5 250  190 250   0
130     -45454.5 250  190 250   0
131      45454.5 250  190 250   0
132     -36363.6 250  190 250   0
133      36363.6 250  190 250   0
134     -27272.7 250  190 250   0
135      27272.7 250  190 250   0
136     -18181.8 250  190 250   0
137      18181.8 250  190 250   0
138     -9090.91 250  190 250   0
139      9090.91 250  190 250   0
140            0 250  190 250   0
141           -0 250  190 250   0

# Format of ADC events:
# id num dwell delay freq phase
# ..  ..    ns    us   Hz   rad
[ADC]
1 128 49844 20 0 0

# Format of delays:
# id delay (us)
[DELAYS]
1 122050
2 4356860

# Sequence Shapes
[SHAPES]

shape_id 1
num_samples 2100
0
2e-08
5e-08
9e-08
1.5e-07
2.3e-07
3.1e-07
4.2e-07
5.4e-07
6.8e-07
8.3e-07
9.9e-07
1.18e-06
1.37e-06
1.58e-06
1.81e-06
2.06e-06
2.31e-06
2.59e-06
2.87e-06
3.18e-06
3.51e-06
3.84e-06
4.19e-06
4.56e-06
4.94e-06
5.34e-06
5.76e-06
6.19e-06
6.63e-06
7.1e-06
7.57e-06
8.07e-06
8.58e-06
9.1e-06
9.64e-06
1.019e-05
1.077e-05
1.136e-05
1.195e-05
1.258e-05
1.321e-05
1.386e-05
1.452e-05
1.521e-05
1.59e-05
1.661e-05
1.733e-05
1.808e-05
1.884e-05
1.961e-05
2.039e-05
2.12e-05
2.201e-05
2.285e-05
2.37e-05
2.456e-05
2.543e-05
2.633e-05
2.724e-05
2.815e-05
2.909e-05
3.005e-05
3.1e-05
3.199e-05
3.298e-05
3.399e-05
3.501e-05
3.605e-05
3.71e-05
3.816e-05
3.924e-05
4.033e-05
4.143e-05
4.256e-05
4.368e-05
4.484e-05
4.599e-05
4.716e-05
4.834e-05
4.954e-05
5.076e-05
5.197e-05
5.321e-05
5.446e-05
5.572e-05
5.699e-05
5.827e-05
5.957e-05
6.087e-05
6.22e-05
6.352e-05
6.487e-05
6.622e-05
6.759e-05
6.896e-05
7.034e-05
7.175e-05
7.315e-05
7.456e-05
7.6e-05
7.743e-05
7.888e-05
8.033e-05
8.18e-05
8.328e-05
8.476e-05
8.626e-05
8.776e-05
8.927e-05
9.079e-05
9.231e-05
9.386e-05
9.54e-05
9.695e-05
9.851e-05
0.00010007
0.00010166
0.00010323
0.00010482
0.00010641
0.00010802
0.00010962
0.00011123
0.00011286
0.00011448
0.00011611
0.00011774
0.00011938
0.00012103
0.00012268
0.00012433
0.00012599
0.00012765
0.00012931
0.00013099
0.00013266
0.00013433
0.00013601
0.00013768
0.00013938
0.00014105
0.00014274
0.00014443
0.00014612
0.00014781
0.0001495
0.00015119
0.00015289
0.00015457
0.00015627
0.00015796
0.00015965
0.00016134
0.00016304
0.00016471
0.00016641
0.00016809
0.00016977
0.00017145
0.00017312
0.0001748
0.00017648
0.00017813
0.00017981
0.00018146
0.00018311
0.00018477
0.00018641
0.00018805
0.00018969
0.00019132
0.00019294
0.00019456
0.00019617
0.00019777
0.00019937
0.00020096
0.00020254
0.00020412
0.00020568
0.00020724
0.00020879
0.00021032
0.00021186
0.00021338
0.00021489
0.00021639
0.00021788
0.00021935
0.00022083
0.00022228
0.00022373
0.00022516
0.00022658
0.00022799
0.00022939
0.00023076
0.00023214
0.00023349
0.00023483
0.00023616
0.00023747
0.00023876
0.00024005
0.00024131
0.00024257
0.00024379
0.00024502
0.00024621
0.0002474
0.00024857
0.00024971
0.00025085
0.00025195
0.00025305
0.00025413
0.00025518
0.00025621
0.00025723
0.00025823
0.00025921
0.00026016
0.00026109
0.000262
0.0002629
0.00026377
0.00026461
0.00026543
0.00026624
0.00026702
0.00026777
0.0002685
0.00026921
0.00026989
0.00027055
0.00027118
0.00027179
0.00027238
0.00027293
0.00027346
0.00027396
0.00027444
0.00027489
0.00027531
0.00027571
0.00027608
0.00027641
0.00027673
0.00027701
0.00027726
0.00027748
0.00027767
0.00027784
0.00027798
0.00027807
0.00027815
0.00027819
0.0002782
0.00027818
0.00027812
0.00027804
0.00027791
0.00027777
0.00027758
0.00027737
0.00027711
0.00027682
0.00027651
0.00027615
0.00027577
0.00027534
0.00027488
0.00027439
0.00027385
0.0002733
0.00027268
0.00027205
0.00027138
0.00027066
0.00026991
0.00026912
0.0002683
0.00026743
0.00026653
0.00026559
0.00026461
0.0002636
0.00026253
0.00026144
0.0002603
0.00025913
0.0002579
0.00025665
0.00025536
0.00025401
0.00025263
0.00025121
0.00024975
0.00024824
0.00024669
0.00024511
0.00024347
0.0002418
0.00024008
0.00023832
0.00023652
0.00023466
0.00023278
0.00023085
0.00022886
0.00022684
0.00022477
0.00022267
0.0002205
0.0002183
0.00021606
0.00021376
0.00021142
0.00020904
0.00020661
0.00020413
0.00020161
0.00019904
0.00019643
0.00019376
0.00019106
0.0001883
0.00018549
0.00018265
0.00017975
0.0001768
0.00017381
0.00017077
0.00016768
0.00016454
0.00016136
0.00015812
0.00015484
0.00015151
0.00014813
0.0001447
0.00014122
0.0001377
0.00013412
0.00013049
0.00012682
0.0001231
0.00011932
0.0001155
0.00011163
0.0001077
0.00010374
9.97e-05
9.564e-05
9.151e-05
8.734e-05
8.312e-05
7.884e-05
7.452e-05
7.014e-05
6.572e-05
6.125e-05
5.672e-05
5.214e-05
4.752e-05
4.283e-05
3.811e-05
3.333e-05
2.85e-05
2.362e-05
1.869e-05
1.371e-05
8.67e-06
3.59e-06
-1.55e-06
-6.73e-06
-1.196e-05
-1.726e-05
-2.259e-05
-2.798e-05
-3.342e-05
-3.891e-05
-4.445e-05
-5.004e-05
-5.568e-05
-6.137e-05
-6.712e-05
-7.291e-05
-7.876e-05
-8.465e-05
-9.059e-05
-9.659e-05
-0.00010264
-0.00010873
-0.00011487
-0.00012107
-0.00012732
-0.00013361
-0.00013995
-0.00014635
-0.0001528
-0.00015929
-0.00016583
-0.00017242
-0.00017907
-0.00018576
-0.00019249
-0.00019929
-0.00020612
-0.00021301
-0.00021994
-0.00022692
-0.00023396
-0.00024103
-0.00024816
-0.00025534
-0.00026255
-0.00026983
-0.00027714
-0.00028451
-0.00029192
-0.00029938
-0.00030688
-0.00031443
-0.00032203
-0.00032967
-0.00033736
-0.0003451
-0.00035288
-0.0003607
-0.00036857
-0.00037649
-0.00038445
-0.00039245
-0.0004005
-0.0004086
-0.00041673
-0.00042491
-0.00043314
-0.0004414
-0.00044971
-0.00045806
-0.00046646
-0.0004749
-0.00048337
-0.00049189
-0.00050046
-0.00050906
-0.0005177
-0.00052638
-0.00053511
-0.00054387
-0.00055268
-0.00056152
-0.0005704
-0.00057932
-0.00058829
-0.00059728
-0.00060631
-0.00061539
-0.0006245
-0.00063364
-0.00064283
-0.00065205
-0.00066131
-0.0006706
-0.00067992
-0.00068929
-0.00069868
-0.00070812
-0.00071758
-0.00072707
-0.00073661
-0.00074618
-0.00075577
-0.0007654
-0.00077507
-0.00078475
-0.00079448
-0.00080423
-0.00081402
-0.00082383
-0.00083368
-0.00084354
-0.00085345
-0.00086339
-0.00087333
-0.00088333
-0.00089333
-0.00090338
-0.00091344
-0.00092353
-0.00093365
-0.0009438
-0.00095395
-0.00096415
-0.00097437
-0.0009846
-0.00099486
0.00100515
0.00101545
0.00102577
0.00103613
0.00104649
0.00105688
0.00106729
0.00107772
0.00108817
0.00109863
0.00110911
0.00111961
0.00113013
0.00114066
0.00115122
0.00116177
0.00117236
0.00118296
0.00119356
0.00120418
0.00121482
0.00122547
0.00123613
0.00124679
0.00125749
0.00126817
0.00127888
0.00128959
0.00130032
0.00131104
0.00132178
0.00133253
0.00134328
0.00135404
0.00136481
0.00137558
0.00138635
0.00139714
0.00140791
0.00141871
0.00142949
0.00144029
0.00145108
0.00146188
0.00147267
0.00148346
0.00149427
0.00150505
0.00151585
0.00152664
0.00153743
0.00154821
0.00155899
0.00156977
0.00158054
0.00159131
0.00160206
0.00161282
0.00162356
0.00163431
0.00164503
0.00165575
0.00166647
0.00167716
0.00168786
0.00169854
0.00170921
0.00171986
0.0017305
0.00174114
0.00175175
0.00176235
0.00177293
0.00178351
0.00179406
0.00180459
0.00181512
0.00182561
0.0018361
0.00184656
0.00185701
0.00186743
0.00187782
0.00188821
0.00189857
0.0019089
0.00191921
0.0019295
0.00193977
0.00195
0.00196021
0.0019704
0.00198056
0.00199069
0.0020008
0.00201086
0.00202092
0.00203093
0.00204091
0.00205087
0.00206079
0.00207068
0.00208054
0.00209037
0.00210015
0.00210991
0.00211963
0.00212931
0.00213896
0.00214858
0.00215814
0.00216769
0.00217718
0.00218664
0.00219605
0.00220543
0.00221477
0.00222407
0.00223332
0.00224253
0.00225169
0.00226082
0.00226989
0.00227893
0.00228792
0.00229686
0.00230575
0.0023146
0.0023234
0.00233215
0.00234085
0.00234951
0.0023581
0.00236666
0.00237516
0.0023836
0.00239201
0.00240034
0.00240863
0.00241687
0.00242505
0.00243317
0.00244124
0.00244926
0.00245721
0.00246511
0.00247295
0.00248073
0.00248846
0.00249612
0.00250372
0.00251127
0.00251875
0.00252617
0.00253352
0.00254082
0.00254806
0.00255522
0.00256232
0.00256936
0.00257634
0.00258325
0.00259008
0.00259686
0.00260357
0.0026102
0.00261678
0.00262328
0.00262971
0.00263607
0.00264236
0.00264859
0.00265474
0.00266081
0.00266682
0.00267276
0.00267861
0.0026844
0.00269011
0.00269575
0.00270131
0.0027068
0.00271221
0.00271755
0.0027228
0.00272798
0.00273308
0.00273811
0.00274305
0.00274792
0.00275271
0.00275741
0.00276204
0.00276658
0.00277105
0.00277543
0.00277973
0.00278396
0.00278808
0.00279214
0.00279611
0.00279999
0.00280379
0.00280751
0.00281113
0.00281469
0.00281814
0.00282151
0.0028248
0.00282799
0.00283111
0.00283414
0.00283706
0.00283992
0.00284267
0.00284535
0.00284792
0.00285041
0.00285282
0.00285512
0.00285734
0.00285947
0.00286151
0.00286345
0.0028653
0.00286707
0.00286873
0.00287031
0.00287179
0.00287318
0.00287447
0.00287568
0.00287678
0.0028778
0.00287871
0.00287954
0.00288027
0.00288089
0.00288144
0.00288187
0.00288222
0.00288247
0.00288262
0.00288268
0.00288263
0.00288249
0.00288226
0.00288192
0.00288149
0.00288097
0.00288033
0.0028796
0.00287878
0.00287786
0.00287683
0.00287572
0.00287449
0.00287317
0.00287175
0.00287023
0.00286861
0.0028669
0.00286507
0.00286316
0.00286114
0.00285901
0.0028568
0.00285448
0.00285206
0.00284953
0.00284691
0.00284419
0.00284137
0.00283844
0.00283541
0.00283228
0.00282906
0.00282573
0.00282229
0.00281876
0.00281513
0.0028114
0.00280755
0.00280362
0.00279958
0.00279544
0.00279119
0.00278686
0.0027824
0.00277786
0.00277321
0.00276847
0.00276361
0.00275866
0.0027536
0.00274846
0.00274319
0.00273784
0.00273238
0.00272683
0.00272116
0.0027154
0.00270954
0.00270358
0.00269752
0.00269135
0.00268509
0.00267873
0.00267226
0.0026657
0.00265904
0.00265227
0.00264541
0.00263844
0.00263139
0.00262422
0.00261696
0.0026096
0.00260215
0.00259459
0.00258693
0.00257918
0.00257133
0.00256338
0.00255534
0.00254719
0.00253894
0.00253061
0.00252218
0.00251364
0.00250502
0.00249629
0.00248747
0.00247856
0.00246954
0.00246044
0.00245124
0.00244194
0.00243256
0.00242307
0.00241349
0.00240382
0.00239405
0.0023842
0.00237425
0.0023642
0.00235407
0.00234385
0.00233353
0.00232312
0.00231262
0.00230203
0.00229135
0.00228058
0.00226972
0.00225877
0.00224774
0.00223661
0.0022254
0.0022141
0.00220272
0.00219123
0.00217968
0.00216803
0.0021563
0.00214448
0.00213258
0.00212059
0.00210852
0.00209636
0.00208413
0.00207181
0.0020594
0.00204692
0.00203436
0.0020217
0.00200898
0.00199617
0.00198329
0.00197031
0.00195728
0.00194414
0.00193095
0.00191767
0.00190431
0.00189088
0.00187738
0.00186379
0.00185013
0.00183641
0.00182259
0.00180872
0.00179476
0.00178074
0.00176665
0.00175248
0.00173824
0.00172393
0.00170955
0.00169511
0.00168059
0.00166601
0.00165136
0.00163665
0.00162186
0.00160701
0.00159209
0.00157712
0.00156207
0.00154697
0.00153179
0.00151657
0.00150127
0.00148592
0.00147051
0.00145503
0.00143949
0.0014239
0.00140826
0.00139254
0.00137678
0.00136096
0.00134509
0.00132915
0.00131316
0.00129713
0.00128103
0.00126489
0.0012487
0.00123244
0.00121615
0.0011998
0.0011834
0.00116696
0.00115046
0.00113392
0.00111734
0.0011007
0.00108402
0.0010673
0.00105054
0.00103372
0.00101688
0.00099997
0.00098305
0.00096607
0.00094905
0.000932
0.0009149
0.00089777
0.00088061
0.0008634
0.00084617
0.00082889
0.00081158
0.00079424
0.00077686
0.00075946
0.00074202
0.00072455
0.00070705
0.00068952
0.00067197
0.00065438
0.00063678
0.00061913
0.00060147
0.00058379
0.00056607
0.00054834
0.00053058
0.0005128
0.00049499
0.00047718
0.00045933
0.00044148
0.00042359
0.0004057
0.00038779
0.00036985
0.00035191
0.00033396
0.00031598
0.00029799
0.00028
0.00026198
0.00024397
0.00022593
0.00020789
0.00018985
0.00017179
0.00015372
0.00013566
0.00011757
9.95e-05
8.141e-05
6.333e-05
4.523e-05
2.714e-05
9.05e-06
-9.05e-06
-2.714e-05
-4.523e-05
-6.333e-05
-8.141e-05
-9.95e-05
-0.00011757
-0.00013566
-0.00015372
-0.00017179
-0.00018985
-0.00020789
-0.00022593
-0.00024397
-0.00026198
-0.00028
-0.00029799
-0.00031598
-0.00033396
-0.00035191
-0.00036985
-0.00038779
-0.0004057
-0.00042359
-0.00044148
-0.00045933
-0.00047718
-0.00049499
-0.0005128
-0.00053058
-0.00054834
-0.00056607
-0.00058379
-0.00060147
-0.00061913
-0.00063678
-0.00065438
-0.00067197
-0.00068952
-0.00070705
-0.00072455
-0.00074202
-0.00075946
-0.00077686
-0.00079424
-0.00081158
-0.00082889
-0.00084617
-0.0008634
-0.00088061
-0.00089777
-0.0009149
-0.000932
-0.00094905
-0.00096607
-0.00098305
-0.00099997
-0.00101688
-0.00103372
-0.00105054
-0.0010673
-0.00108402
-0.0011007
-0.00111734
-0.00113392
-0.00115046
-0.00116696
-0.0011834
-0.0011998
-0.00121615
-0.00123244
-0.0012487
-0.00126489
-0.00128103
-0.00129713
-0.00131316
-0.00132915
-0.00134509
-0.00136096
-0.00137678
-0.00139254
-0.00140826
-0.0014239
-0.00143949
-0.00145503
-0.00147051
-0.00148592
-0.00150127
-0.00151657
-0.00153179
-0.00154697
-0.00156207
-0.00157712
-0.00159209
-0.00160701
-0.00162186
-0.00163665
-0.00165136
-0.00166601
-0.00168059
-0.00169511
-0.00170955
-0.00172393
-0.00173824
-0.00175248
-0.00176665
-0.00178074
-0.00179476
-0.00180872
-0.00182259
-0.00183641
-0.00185013
-0.00186379
-0.00187738
-0.00189088
-0.00190431
-0.00191767
-0.00193095
-0.00194414
-0.00195728
-0.00197031
-0.00198329
-0.00199617
-0.00200898
-0.0020217
-0.00203436
-0.00204692
-0.0020594
-0.00207181
-0.00208413
-0.00209636
-0.00210852
-0.00212059
-0.00213258
-0.00214448
-0.0021563
-0.00216803
-0.00217968
-0.00219123
-0.00220272
-0.0022141
-0.0022254
-0.00223661
-0.00224774
-0.00225877
-0.00226972
-0.00228058
-0.00229135
-0.00230203
-0.00231262
-0.00232312
-0.00233353
-0.00234385
-0.00235407
-0.0023642
-0.00237425
-0.0023842
-0.00239405
-0.00240382
-0.00241349
-0.00242307
-0.00243256
-0.00244194
-0.00245124
-0.00246044
-0.00246954
-0.00247856
-0.00248747
-0.00249629
-0.00250502
-0.00251364
-0.00252218
-0.00253061
-0.00253894
-0.00254719
-0.00255534
-0.00256338
-0.00257133
-0.00257918
-0.00258693
-0.00259459
-0.00260215
-0.0026096
-0.00261696
-0.00262422
-0.00263139
-0.00263844
-0.00264541
-0.00265227
-0.00265904
-0.0026657
-0.00267226
-0.00267873
-0.00268509
-0.00269135
-0.00269752
-0.00270358
-0.00270954
-0.0027154
-0.00272116
-0.00272683
-0.00273238
-0.00273784
-0.00274319
-0.00274846
-0.0027536
-0.00275866
-0.00276361
-0.00276847
-0.00277321
-0.00277786
-0.0027824
-0.00278686
-0.00279119
-0.00279544
-0.00279958
-0.00280362
-0.00280755
-0.0028114
-0.00281513
-0.00281876
-0.00282229
-0.00282573
-0.00282906
-0.00283228
-0.00283541
-0.00283844
-0.00284137
-0.00284419
-0.00284691
-0.00284953
-0.00285206
-0.00285448
-0.0028568
-0.00285901
-0.00286114
-0.00286316
-0.00286507
-0.0028669
-0.00286861
-0.00287023
-0.00287175
-0.00287317
-0.00287449
-0.00287572
-0.00287683
-0.00287786
-0.00287878
-0.0028796
-0.00288033
-0.00288097
-0.00288149
-0.00288192
-0.00288226
-0.00288249
-0.00288263
-0.00288268
-0.00288262
-0.00288247
-0.00288222
-0.00288187
-0.00288144
-0.00288089
-0.00288027
-0.00287954
-0.00287871
-0.0028778
-0.00287678
-0.00287568
-0.00287447
-0.00287318
-0.00287179
-0.00287031
-0.00286873
-0.00286707
-0.0028653
-0.00286345
-0.00286151
-0.00285947
-0.00285734
-0.00285512
-0.00285282
-0.00285041
-0.00284792
-0.00284535
-0.00284267
-0.00283992
-0.00283706
-0.00283414
-0.00283111
-0.00282799
-0.0028248
-0.00282151
-0.00281814
-0.00281469
-0.00281113
-0.00280751
-0.00280379
-0.00279999
-0.00279611
-0.00279214
-0.00278808
-0.00278396
-0.00277973
-0.00277543
-0.00277105
-0.00276658
-0.00276204
-0.00275741
-0.00275271
-0.00274792
-0.00274305
-0.00273811
-0.00273308
-0.00272798
-0.0027228
-0.00271755
-0.00271221
-0.0027068
-0.00270131
-0.00269575
-0.00269011
-0.0026844
-0.00267861
-0.00267276
-0.00266682
-0.00266081
-0.00265474
-0.00264859
-0.00264236
-0.00263607
-0.00262971
-0.00262328
-0.00261678
-0.0026102
-0.00260357
-0.00259686
-0.00259008
-0.00258325
-0.00257634
-0.00256936
-0.00256232
-0.00255522
-0.00254806
-0.00254082
